#      z (A) rho (1e-6/A2) irho (1e-6/A2) rhoM (1e-6/A2) theta (degrees)
-29.40195541   3.53298879   0.00034439   0.00143935 267.59892810
-29.30195541   3.53299154   0.00034441   0.00148831 267.59892810
-29.20195541   3.53299438   0.00034444   0.00153879 267.59892810
-29.10195541   3.53299731   0.00034446   0.00159083 267.59892810
-29.00195541   3.53300033   0.00034448   0.00164447 267.59892810
-28.90195541   3.53300344   0.00034451   0.00169975 267.59892810
-28.80195541   3.53300665   0.00034453   0.00175672 267.59892810
-28.70195541   3.53300995   0.00034456   0.00181542 267.59892810
-28.60195541   3.53301336   0.00034458   0.00187590 267.59892810
-28.50195541   3.53301687   0.00034461   0.00193822 267.59892810
-28.40195541   3.53302048   0.00034464   0.00200241 267.59892810
-28.30195541   3.53302420   0.00034467   0.00206852 267.59892810
-28.20195541   3.53302803   0.00034470   0.00213661 267.59892810
-28.10195541   3.53303198   0.00034473   0.00220674 267.59892810
-28.00195541   3.53303604   0.00034476   0.00227894 267.59892810
-27.90195541   3.53304023   0.00034479   0.00235328 267.59892810
-27.80195541   3.53304453   0.00034483   0.00242981 267.59892810
-27.70195541   3.53304897   0.00034486   0.00250859 267.59892810
-27.60195541   3.53305353   0.00034490   0.00258967 267.59892810
-27.50195541   3.53305823   0.00034494   0.00267311 267.59892810
-27.40195541   3.53306306   0.00034497   0.00275898 267.59892810
-27.30195541   3.53306803   0.00034501   0.00284734 267.59892810
-27.20195541   3.53307315   0.00034505   0.00293824 267.59892810
-27.10195541   3.53307841   0.00034509   0.00303176 267.59892810
-27.00195541   3.53308383   0.00034514   0.00312795 267.59892810
-26.90195541   3.53308940   0.00034518   0.00322688 267.59892810
-26.80195541   3.53309512   0.00034522   0.00332862 267.59892810
-26.70195541   3.53310101   0.00034527   0.00343324 267.59892810
-26.60195541   3.53310707   0.00034532   0.00354081 267.59892810
-26.50195541   3.53311329   0.00034537   0.00365140 267.59892810
-26.40195541   3.53311969   0.00034542   0.00376509 267.59892810
-26.30195541   3.53312627   0.00034547   0.00388194 267.59892810
-26.20195541   3.53313302   0.00034552   0.00400204 267.59892810
-26.10195541   3.53313997   0.00034557   0.00412546 267.59892810
-26.00195541   3.53314711   0.00034563   0.00425227 267.59892810
-25.90195541   3.53315444   0.00034569   0.00438257 267.59892810
-25.80195541   3.53316198   0.00034575   0.00451643 267.59892810
-25.70195541   3.53316972   0.00034581   0.00465394 267.59892810
-25.60195541   3.53317766   0.00034587   0.00479517 267.59892810
-25.50195541   3.53318583   0.00034593   0.00494022 267.59892810
-25.40195541   3.53319421   0.00034600   0.00508917 267.59892810
-25.30195541   3.53320282   0.00034607   0.00524211 267.59892810
-25.20195541   3.53321166   0.00034614   0.00539913 267.59892810
-25.10195541   3.53322073   0.00034621   0.00556033 267.59892810
-25.00195541   3.53323004   0.00034628   0.00572580 267.59892810
-24.90195541   3.53323960   0.00034635   0.00589563 267.59892810
-24.80195541   3.53324941   0.00034643   0.00606992 267.59892810
-24.70195541   3.53325948   0.00034651   0.00624877 267.59892810
-24.60195541   3.53326981   0.00034659   0.00643228 267.59892810
-24.50195541   3.53328040   0.00034667   0.00662055 267.59892810
-24.40195541   3.53329127   0.00034676   0.00681368 267.59892810
-24.30195541   3.53330242   0.00034685   0.00701178 267.59892810
-24.20195541   3.53331386   0.00034694   0.00721496 267.59892810
-24.10195541   3.53332559   0.00034703   0.00742333 267.59892810
-24.00195541   3.53333761   0.00034712   0.00763699 267.59892810
-23.90195541   3.53334994   0.00034722   0.00785605 267.59892810
-23.80195541   3.53336258   0.00034732   0.00808063 267.59892810
-23.70195541   3.53337554   0.00034742   0.00831085 267.59892810
-23.60195541   3.53338882   0.00034752   0.00854682 267.59892810
-23.50195541   3.53340243   0.00034763   0.00878866 267.59892810
-23.40195541   3.53341638   0.00034774   0.00903649 267.59892810
-23.30195541   3.53343067   0.00034785   0.00929044 267.59892810
-23.20195541   3.53344532   0.00034797   0.00955061 267.59892810
-23.10195541   3.53346032   0.00034808   0.00981715 267.59892810
-23.00195541   3.53347569   0.00034820   0.01009018 267.59892810
-22.90195541   3.53349143   0.00034833   0.01036983 267.59892810
-22.80195541   3.53350754   0.00034845   0.01065622 267.59892810
-22.70195541   3.53352405   0.00034858   0.01094949 267.59892810
-22.60195541   3.53354095   0.00034871   0.01124978 267.59892810
-22.50195541   3.53355826   0.00034885   0.01155721 267.59892810
-22.40195541   3.53357597   0.00034899   0.01187194 267.59892810
-22.30195541   3.53359410   0.00034913   0.01219409 267.59892810
-22.20195541   3.53361266   0.00034927   0.01252380 267.59892810
-22.10195541   3.53363165   0.00034942   0.01286123 267.59892810
-22.00195541   3.53365108   0.00034958   0.01320651 267.59892810
-21.90195541   3.53367097   0.00034973   0.01355979 267.59892810
-21.80195541   3.53369131   0.00034989   0.01392122 267.59892810
-21.70195541   3.53371212   0.00035005   0.01429095 267.59892810
-21.60195541   3.53373340   0.00035022   0.01466912 267.59892810
-21.50195541   3.53375517   0.00035039   0.01505590 267.59892810
-21.40195541   3.53377744   0.00035056   0.01545143 267.59892810
-21.30195541   3.53380020   0.00035074   0.01585587 267.59892810
-21.20195541   3.53382347   0.00035092   0.01626939 267.59892810
-21.10195541   3.53384727   0.00035111   0.01669213 267.59892810
-21.00195541   3.53387159   0.00035130   0.01712426 267.59892810
-20.90195541   3.53389645   0.00035150   0.01756595 267.59892810
-20.80195541   3.53392185   0.00035169   0.01801735 267.59892810
-20.70195541   3.53394782   0.00035190   0.01847864 267.59892810
-20.60195541   3.53397435   0.00035211   0.01894997 267.59892810
-20.50195541   3.53400145   0.00035232   0.01943152 267.59892810
-20.40195541   3.53402914   0.00035253   0.01992346 267.59892810
-20.30195541   3.53405742   0.00035276   0.02042597 267.59892810
-20.20195541   3.53408631   0.00035298   0.02093920 267.59892810
-20.10195541   3.53411581   0.00035321   0.02146335 267.59892810
-20.00195541   3.53414593   0.00035345   0.02199858 267.59892810
-19.90195541   3.53417669   0.00035369   0.02254507 267.59892810
-19.80195541   3.53420809   0.00035394   0.02310300 267.59892810
-19.70195541   3.53424015   0.00035419   0.02367256 267.59892810
-19.60195541   3.53427287   0.00035444   0.02425391 267.59892810
-19.50195541   3.53430627   0.00035470   0.02484726 267.59892810
-19.40195541   3.53434035   0.00035497   0.02545277 267.59892810
-19.30195541   3.53437512   0.00035524   0.02607064 267.59892810
-19.20195541   3.53441060   0.00035552   0.02670105 267.59892810
-19.10195541   3.53444680   0.00035580   0.02734419 267.59892810
-19.00195541   3.53448373   0.00035609   0.02800025 267.59892810
-18.90195541   3.53452139   0.00035639   0.02866941 267.59892810
-18.80195541   3.53455980   0.00035669   0.02935188 267.59892810
-18.70195541   3.53459897   0.00035699   0.03004783 267.59892810
-18.60195541   3.53463891   0.00035731   0.03075747 267.59892810
-18.50195541   3.53467963   0.00035763   0.03148098 267.59892810
-18.40195541   3.53472115   0.00035795   0.03221857 267.59892810
-18.30195541   3.53476346   0.00035828   0.03297042 267.59892810
-18.20195541   3.53480660   0.00035862   0.03373674 267.59892810
-18.10195541   3.53485055   0.00035896   0.03451771 267.59892810
-18.00195541   3.53489534   0.00035931   0.03531355 267.59892810
-17.90195541   3.53494098   0.00035967   0.03612444 267.59892810
-17.80195541   3.53498748   0.00036004   0.03695058 267.59892810
-17.70195541   3.53503485   0.00036041   0.03779218 267.59892810
-17.60195541   3.53508310   0.00036078   0.03864943 267.59892810
-17.50195541   3.53513224   0.00036117   0.03952254 267.59892810
-17.40195541   3.53518229   0.00036156   0.04041170 267.59892810
-17.30195541   3.53523324   0.00036196   0.04131712 267.59892810
-17.20195541   3.53528513   0.00036237   0.04223899 267.59892810
-17.10195541   3.53533795   0.00036278   0.04317752 267.59892810
-17.00195541   3.53539173   0.00036320   0.04413291 267.59892810
-16.90195541   3.53544646   0.00036363   0.04510536 267.59892810
-16.80195541   3.53550216   0.00036406   0.04609508 267.59892810
-16.70195541   3.53555885   0.00036451   0.04710226 267.59892810
-16.60195541   3.53561653   0.00036496   0.04812711 267.59892810
-16.50195541   3.53567522   0.00036542   0.04916982 267.59892810
-16.40195541   3.53573493   0.00036589   0.05023060 267.59892810
-16.30195541   3.53579566   0.00036636   0.05130966 267.59892810
-16.20195541   3.53585743   0.00036685   0.05240718 267.59892810
-16.10195541   3.53592025   0.00036734   0.05352337 267.59892810
-16.00195541   3.53598414   0.00036784   0.05465843 267.59892810
-15.90195541   3.53604910   0.00036835   0.05581256 267.59892810
-15.80195541   3.53611514   0.00036886   0.05698595 267.59892810
-15.70195541   3.53618228   0.00036939   0.05817881 267.59892810
-15.60195541   3.53625052   0.00036992   0.05939133 267.59892810
-15.50195541   3.53631988   0.00037047   0.06062370 267.59892810
-15.40195541   3.53639037   0.00037102   0.06187612 267.59892810
-15.30195541   3.53646200   0.00037158   0.06314879 267.59892810
-15.20195541   3.53653478   0.00037215   0.06444189 267.59892810
-15.10195541   3.53660873   0.00037273   0.06575563 267.59892810
-15.00195541   3.53668384   0.00037331   0.06709018 267.59892810
-14.90195541   3.53676013   0.00037391   0.06844574 267.59892810
-14.80195541   3.53683762   0.00037452   0.06982249 267.59892811
-14.70195541   3.53691631   0.00037513   0.07122062 267.59892811
-14.60195541   3.53699622   0.00037576   0.07264032 267.59892811
-14.50195541   3.53707735   0.00037639   0.07408176 267.59892811
-14.40195541   3.53715971   0.00037704   0.07554513 267.59892811
-14.30195541   3.53724332   0.00037769   0.07703061 267.59892811
-14.20195541   3.53732818   0.00037836   0.07853837 267.59892811
-14.10195541   3.53741431   0.00037903   0.08006860 267.59892811
-14.00195541   3.53750171   0.00037972   0.08162145 267.59892811
-13.90195541   3.53759039   0.00038041   0.08319710 267.59892811
-13.80195541   3.53768036   0.00038111   0.08479573 267.59892811
-13.70195541   3.53777164   0.00038183   0.08641749 267.59892811
-13.60195541   3.53786423   0.00038255   0.08806255 267.59892811
-13.50195541   3.53795814   0.00038329   0.08973107 267.59892812
-13.40195541   3.53805338   0.00038403   0.09142321 267.59892812
-13.30195541   3.53814996   0.00038479   0.09313913 267.59892812
-13.20195541   3.53824788   0.00038556   0.09487897 267.59892812
-13.10195541   3.53834716   0.00038633   0.09664290 267.59892812
-13.00195541   3.53844780   0.00038712   0.09843104 267.59892812
-12.90195541   3.53854981   0.00038792   0.10024356 267.59892812
-12.80195541   3.53865321   0.00038873   0.10208059 267.59892813
-12.70195541   3.53875799   0.00038955   0.10394226 267.59892813
-12.60195541   3.53886416   0.00039038   0.10582872 267.59892813
-12.50195541   3.53897174   0.00039122   0.10774009 267.59892813
-12.40195541   3.53908073   0.00039208   0.10967650 267.59892813
-12.30195541   3.53919113   0.00039294   0.11163808 267.59892814
-12.20195541   3.53930296   0.00039381   0.11362494 267.59892814
-12.10195541   3.53941621   0.00039470   0.11563719 267.59892814
-12.00195541   3.53953090   0.00039560   0.11767497 267.59892814
-11.90195541   3.53964704   0.00039651   0.11973836 267.59892815
-11.80195541   3.53976462   0.00039743   0.12182748 267.59892815
-11.70195541   3.53988365   0.00039836   0.12394243 267.59892815
-11.60195541   3.54000415   0.00039930   0.12608330 267.59892816
-11.50195541   3.54012611   0.00040026   0.12825019 267.59892816
-11.40195541   3.54024953   0.00040122   0.13044318 267.59892816
-11.30195541   3.54037443   0.00040220   0.13266236 267.59892817
-11.20195541   3.54050081   0.00040319   0.13490780 267.59892817
-11.10195541   3.54062867   0.00040419   0.13717958 267.59892818
-11.00195541   3.54075802   0.00040520   0.13947778 267.59892818
-10.90195541   3.54088886   0.00040623   0.14180244 267.59892819
-10.80195541   3.54102119   0.00040726   0.14415365 267.59892819
-10.70195541   3.54115502   0.00040831   0.14653144 267.59892820
-10.60195541   3.54129034   0.00040937   0.14893587 267.59892820
-10.50195541   3.54142717   0.00041044   0.15136699 267.59892821
-10.40195541   3.54156550   0.00041152   0.15382484 267.59892822
-10.30195541   3.54170534   0.00041262   0.15630945 267.59892822
-10.20195541   3.54184669   0.00041373   0.15882085 267.59892823
-10.10195541   3.54198954   0.00041484   0.16135906 267.59892824
-10.00195541   3.54213391   0.00041597   0.16392411 267.59892825
 -9.90195541   3.54227979   0.00041712   0.16651601 267.59892826
 -9.80195541   3.54242717   0.00041827   0.16913477 267.59892827
 -9.70195541   3.54257607   0.00041943   0.17178039 267.59892828
 -9.60195541   3.54272648   0.00042061   0.17445286 267.59892829
 -9.50195541   3.54287841   0.00042180   0.17715219 267.59892830
 -9.40195541   3.54303184   0.00042300   0.17987835 267.59892831
 -9.30195541   3.54318678   0.00042421   0.18263132 267.59892832
 -9.20195541   3.54334323   0.00042544   0.18541109 267.59892833
 -9.10195541   3.54350118   0.00042668   0.18821761 267.59892835
 -9.00195541   3.54366064   0.00042792   0.19105085 267.59892836
 -8.90195541   3.54382160   0.00042918   0.19391078 267.59892838
 -8.80195541   3.54398405   0.00043046   0.19679733 267.59892839
 -8.70195541   3.54414800   0.00043174   0.19971045 267.59892841
 -8.60195541   3.54431345   0.00043303   0.20265008 267.59892843
 -8.50195541   3.54448038   0.00043434   0.20561616 267.59892844
 -8.40195541   3.54464879   0.00043566   0.20860861 267.59892846
 -8.30195541   3.54481869   0.00043699   0.21162735 267.59892849
 -8.20195541   3.54499006   0.00043833   0.21467229 267.59892851
 -8.10195541   3.54516289   0.00043968   0.21774335 267.59892853
 -8.00195541   3.54533719   0.00044105   0.22084041 267.59892855
 -7.90195541   3.54551295   0.00044242   0.22396339 267.59892858
 -7.80195541   3.54569016   0.00044381   0.22711217 267.59892861
 -7.70195541   3.54586882   0.00044521   0.23028662 267.59892863
 -7.60195541   3.54604891   0.00044662   0.23348663 267.59892866
 -7.50195541   3.54623043   0.00044804   0.23671207 267.59892870
 -7.40195541   3.54641338   0.00044947   0.23996280 267.59892873
 -7.30195541   3.54659773   0.00045092   0.24323868 267.59892876
 -7.20195541   3.54678350   0.00045237   0.24653955 267.59892880
 -7.10195541   3.54697066   0.00045383   0.24986527 267.59892884
 -7.00195541   3.54715921   0.00045531   0.25321566 267.59892888
 -6.90195541   3.54734914   0.00045680   0.25659057 267.59892892
 -6.80195541   3.54754044   0.00045829   0.25998982 267.59892897
 -6.70195541   3.54773310   0.00045980   0.26341323 267.59892901
 -6.60195541   3.54792710   0.00046132   0.26686060 267.59892906
 -6.50195541   3.54812244   0.00046285   0.27033176 267.59892912
 -6.40195541   3.54831911   0.00046439   0.27382649 267.59892917
 -6.30195541   3.54851709   0.00046594   0.27734459 267.59892923
 -6.20195541   3.54871637   0.00046750   0.28088584 267.59892929
 -6.10195541   3.54891694   0.00046907   0.28445004 267.59892935
 -6.00195541   3.54911879   0.00047065   0.28803695 267.59892942
 -5.90195541   3.54932190   0.00047224   0.29164635 267.59892949
 -5.80195541   3.54952626   0.00047384   0.29527799 267.59892957
 -5.70195541   3.54973186   0.00047545   0.29893163 267.59892965
 -5.60195541   3.54993868   0.00047707   0.30260703 267.59892973
 -5.50195541   3.55014671   0.00047870   0.30630393 267.59892982
 -5.40195541   3.55035593   0.00048034   0.31002206 267.59892991
 -5.30195541   3.55056633   0.00048198   0.31376117 267.59893000
 -5.20195541   3.55077789   0.00048364   0.31752097 267.59893010
 -5.10195541   3.55099060   0.00048531   0.32130119 267.59893021
 -5.00195541   3.55120444   0.00048698   0.32510154 267.59893032
 -4.90195541   3.55141939   0.00048866   0.32892174 267.59893044
 -4.80195541   3.55163544   0.00049035   0.33276148 267.59893056
 -4.70195541   3.55185257   0.00049205   0.33662047 267.59893069
 -4.60195541   3.55207076   0.00049376   0.34049839 267.59893082
 -4.50195541   3.55228999   0.00049548   0.34439494 267.59893096
 -4.40195541   3.55251026   0.00049720   0.34830979 267.59893111
 -4.30195541   3.55273153   0.00049894   0.35224263 267.59893127
 -4.20195541   3.55295379   0.00050068   0.35619313 267.59893143
 -4.10195541   3.55317702   0.00050242   0.36016094 267.59893161
 -4.00195541   3.55340120   0.00050418   0.36414574 267.59893179
 -3.90195541   3.55362631   0.00050594   0.36814717 267.59893198
 -3.80195541   3.55385234   0.00050771   0.37216489 267.59893218
 -3.70195541   3.55407926   0.00050949   0.37619855 267.59893239
 -3.60195541   3.55430705   0.00051127   0.38024779 267.59893261
 -3.50195541   3.55453568   0.00051306   0.38431224 267.59893284
 -3.40195541   3.55476515   0.00051486   0.38839154 267.59893308
 -3.30195541   3.55499543   0.00051666   0.39248531 267.59893333
 -3.20195541   3.55522650   0.00051847   0.39659319 267.59893360
 -3.10195541   3.55545833   0.00052029   0.40071478 267.59893388
 -3.00195541   3.55569090   0.00052211   0.40484970 267.59893417
 -2.90195541   3.55592419   0.00052394   0.40899757 267.59893447
 -2.80195541   3.55615819   0.00052577   0.41315800 267.59893479
 -2.70195541   3.55639285   0.00052761   0.41733057 267.59893513
 -2.60195541   3.55662818   0.00052945   0.42151491 267.59893548
 -2.50195541   3.55686413   0.00053130   0.42571060 267.59893585
 -2.40195541   3.55710069   0.00053316   0.42991723 267.59893624
 -2.30195541   3.55733783   0.00053501   0.43413440 267.59893665
 -2.20195541   3.55757553   0.00053688   0.43836169 267.59893707
 -2.10195541   3.55781377   0.00053874   0.44259869 267.59893752
 -2.00195541   3.55805252   0.00054061   0.44684497 267.59893798
 -1.90195541   3.55829175   0.00054249   0.45110011 267.59893847
 -1.80195541   3.55853145   0.00054437   0.45536369 267.59893898
 -1.70195541   3.55877158   0.00054625   0.45963528 267.59893952
 -1.60195541   3.55901213   0.00054813   0.46391445 267.59894008
 -1.50195541   3.55925307   0.00055002   0.46820077 267.59894067
 -1.40195541   3.55949437   0.00055191   0.47249380 267.59894128
 -1.30195541   3.55973601   0.00055381   0.47679310 267.59894193
 -1.20195541   3.55997796   0.00055570   0.48109824 267.59894260
 -1.10195541   3.56022020   0.00055760   0.48540878 267.59894331
 -1.00195541   3.56046270   0.00055950   0.48972427 267.59894404
 -0.90195541   3.56070544   0.00056141   0.49404426 267.59894482
 -0.80195541   3.56094838   0.00056331   0.49836833 267.59894562
 -0.70195541   3.56119151   0.00056522   0.50269600 267.59894647
 -0.60195541   3.56143480   0.00056713   0.50702685 267.59894735
 -0.50195541   3.56167822   0.00056903   0.51136043 267.59894828
 -0.40195541   3.56192174   0.00057094   0.51569627 267.59894924
 -0.30195541   3.56216534   0.00057286   0.52003393 267.59895025
 -0.20195541   3.56240900   0.00057477   0.52437297 267.59895131
 -0.10195541   3.56265268   0.00057668   0.52871292 267.59895242
 -0.00195541   3.56289636   0.00057859   0.53305335 267.59895357
  0.09804459   3.56314002   0.00058050   0.53739379 267.59895478
  0.19804459   3.56338362   0.00058241   0.54173380 267.59895604
  0.29804459   3.56362714   0.00058433   0.54607292 267.59895736
  0.39804459   3.56387056   0.00058624   0.55041071 267.59895874
  0.49804459   3.56411384   0.00058815   0.55474671 267.59896018
  0.59804459   3.56435696   0.00059006   0.55908047 267.59896168
  0.69804459   3.56459990   0.00059196   0.56341154 267.59896325
  0.79804459   3.56484262   0.00059387   0.56773948 267.59896489
  0.89804459   3.56508510   0.00059578   0.57206384 267.59896661
  0.99804459   3.56532732   0.00059768   0.57638417 267.59896840
  1.09804459   3.56556924   0.00059958   0.58070002 267.59897027
